IAD1  # Must be first four characters

# Data from Thanh Phan, Beckman Laser Institute
# streamlined version of thinh-A.rxt

1.38   # Index of refraction of the sample 
1.00   # Index of refraction of the top and bottom slides 
1.62   # [mm] Thickness of sample 
0.00   # [mm] Thickness of slides 
2.00   # [mm] Diameter of illumination beam 
0.9885 # Reflectivity of the reflectance calibration standard

1      # Number of spheres used for the measurement

# Properties of sphere used for reflectance measurements
101.6  # [mm] Sphere Diameter
12.7   # [mm] Sample Port Diameter
12.7   # [mm] Empty Port Diameter
0.6    # [mm] Detector Port Diameter
0.94   # Reflectivity of the sphere wall (empirical value, 0.9885)

# Properties of sphere for transmittance measurements
101.6  # [mm] Sphere Diameter
12.7   # [mm] Sample Port Diameter
12.7   # [mm] Empty Port Diameter
0.6    # [mm] Detector Port Diameter
0.94   # Reflectivity of the sphere wall

   L  	   r   	   t   	   n  	   R   	  w    	  W
403.98	0.31384	0.36868	1.4071	0.46456	0.93091	0.93091
412.24	0.36652	0.41727	1.4062	0.46571	0.93681	0.93681
420.48	0.37742	0.42885	1.4055	0.46687	0.94392	0.94392
428.70	0.37739	0.43005	1.4044	0.46802	0.94522	0.94522
436.90	0.38051	0.42988	1.4037	0.46917	0.94850	0.94850
445.08	0.37997	0.43371	1.4032	0.47031	0.95196	0.95196
453.24	0.38034	0.43404	1.4026	0.47158	0.95578	0.95578
461.37	0.37894	0.43681	1.4017	0.47305	0.95850	0.95850
469.49	0.38063	0.43807	1.4014	0.47451	0.95936	0.95936
477.58	0.38065	0.44023	1.4006	0.47596	0.96145	0.96145
485.66	0.37979	0.44245	1.4001	0.47742	0.96276	0.96276
493.71	0.37900	0.44406	1.3998	0.47887	0.96460	0.96460
501.75	0.37754	0.44455	1.3994	0.48028	0.96531	0.96531
509.76	0.37722	0.44627	1.3990	0.48156	0.96608	0.96608
517.75	0.3752	0.44887	1.3985	0.48284	0.96715	0.96715
525.73	0.37548	0.44986	1.3980	0.48412	0.96813	0.96813
533.68	0.37373	0.45122	1.3976	0.48539	0.96883	0.96883
541.61	0.37339	0.45345	1.3973	0.48666	0.96935	0.96935
549.52	0.37038	0.45436	1.3970	0.48792	0.96965	0.96965
557.41	0.3686	0.45627	1.3966	0.48919	0.96999	0.96999
565.28	0.36893	0.45715	1.3964	0.49044	0.97013	0.97013
573.13	0.36660	0.45752	1.3960	0.49170	0.97033	0.97033
580.95	0.36444	0.46094	1.3955	0.49295	0.97033	0.97033
588.76	0.36435	0.46161	1.3947	0.49420	0.97041	0.97041
596.55	0.36222	0.46338	1.3946	0.49545	0.97023	0.97023
604.31	0.36050	0.46351	1.3945	0.49660	0.97040	0.97040
612.06	0.35878	0.46514	1.3943	0.49769	0.97029	0.97029
619.78	0.35639	0.46803	1.3939	0.49877	0.97013	0.97013
627.49	0.35464	0.46817	1.3936	0.49985	0.97017	0.97017
635.17	0.35267	0.47017	1.3934	0.50092	0.96995	0.96995
642.84	0.3518	0.47161	1.3931	0.50200	0.96986	0.96986
650.48	0.34978	0.47533	1.3929	0.50308	0.96978	0.96978
658.10	0.34802	0.47574	1.3929	0.50430	0.96974	0.96974
665.70	0.34621	0.47789	1.3928	0.50551	0.96952	0.96952
673.29	0.34501	0.47809	1.3926	0.50673	0.96932	0.96932
680.85	0.34184	0.48006	1.3922	0.50794	0.96894	0.96894
688.39	0.34083	0.48348	1.3924	0.50914	0.96891	0.96891
695.91	0.33953	0.48418	1.3921	0.51035	0.96859	0.96859
703.41	0.33761	0.48460	1.3917	0.51148	0.96856	0.96856
710.89	0.33597	0.48840	1.3914	0.51252	0.96855	0.96855
718.34	0.33318	0.49201	1.3913	0.51357	0.96852	0.96852
725.78	0.33250	0.49270	1.3910	0.51461	0.96842	0.96842
733.20	0.33006	0.49216	1.3908	0.51565	0.96818	0.96818
740.60	0.32736	0.49299	1.3906	0.51668	0.96763	0.96763
747.97	0.32614	0.49512	1.3905	0.51772	0.96760	0.96760
755.33	0.32609	0.49887	1.3901	0.51864	0.96748	0.96748
762.67	0.32389	0.50201	1.3897	0.51952	0.96742	0.96742
769.98	0.32227	0.50410	1.3895	0.52040	0.96728	0.96728
777.28	0.32029	0.50696	1.3895	0.52127	0.96718	0.96718
784.55	0.31708	0.50553	1.3894	0.52215	0.96675	0.96675
791.80	0.31509	0.50709	1.3891	0.52302	0.96674	0.96674
799.04	0.31319	0.50920	1.3889	0.52388	0.96650	0.96650
806.25	0.31343	0.51010	1.3885	0.52500	0.96600	0.96600
813.44	0.30899	0.51274	1.3887	0.52615	0.96575	0.96575
820.61	0.30878	0.51409	1.3894	0.52730	0.96509	0.96509
827.77	0.30665	0.51709	1.3897	0.52844	0.96509	0.96509
834.90	0.30535	0.51732	1.3893	0.52958	0.96503	0.96503
842.01	0.30403	0.51885	1.389	0.53072	0.96488	0.96488
849.10	0.30066	0.52133	1.3895	0.53186	0.96485	0.96485
856.17	0.29868	0.52004	1.3896	0.53323	0.96417	0.96417
863.22	0.29604	0.52082	1.3895	0.53464	0.96411	0.96411
870.25	0.29420	0.52248	1.3894	0.53605	0.96393	0.96393
877.26	0.28998	0.52317	1.3892	0.53745	0.96373	0.96373
884.25	0.29046	0.52498	1.3892	0.53885	0.96356	0.96356
891.21	0.28568	0.52480	1.3892	0.54024	0.96342	0.96342
898.16	0.27993	0.51953	1.3891	0.54163	0.96304	0.96304
905.09	0.26769	0.50560	1.3890	0.54241	0.96285	0.96285
912.00	0.26744	0.51097	1.3889	0.54296	0.96253	0.96253
918.88	0.27609	0.52518	1.3888	0.54351	0.96235	0.96235
925.75	0.27711	0.53257	1.3887	0.54406	0.96208	0.96208
932.60	0.27804	0.53815	1.3887	0.54461	0.96179	0.96179
939.42	0.27548	0.53691	1.3885	0.54515	0.96173	0.96173
946.23	0.27312	0.53611	1.3884	0.54570	0.96109	0.96109	